# Energy (eV)	Intensity (arb. units)
1.8837209302325582 0.0034333138858728685
1.8923076923076922 0.006901401376262051
1.8987477638640429 0.010366397879582712
1.9008944543828266 0.0051859035534760345
1.90304114490161 0.008644718082660763
1.9051878354203935 0.013831394382903595
1.9105545617173525 0.015566983621632335
1.9148479427549194 0.01902888913788514
1.9202146690518784 0.020764478376613438
1.9245080500894454 0.024226383892866465
1.9288014311270125 0.031144012951235922
1.9330948121645797 0.034605918467488506
1.9352415026833631 0.04152045653879011
1.9395348837209303 0.04498236205504269
1.9481216457960644 0.06572906725601468
1.9556350626118069 0.08474636519239453
1.964221824686941 0.11240451747759983
1.972808586762075 0.15561342570233005
1.978175313059034 0.18326694150693346
1.982468694096601 0.21955822067329422
1.98783542039356 0.266218215959539
1.9932021466905188 0.30769462593260877
1.996422182468694 0.3439843596054354
1.9996422182468694 0.38200195504932044
2.0039355992844365 0.42866040484203116
2.0082289803220035 0.47359099286368356
2.0135957066189625 0.5375296058605115
2.0178890876565294 0.6031945351348637
2.0232558139534884 0.6619495628185165
2.0286225402504474 0.7172488669600529
2.033989266547406 0.7777317564147641
2.038282647584973 0.8140230355811248
2.0415026833631487 0.8434013221697183
2.0447227191413235 0.8624124381319618
2.046869409660107 0.8814220086006714
2.051162790697674 0.9004346700564492
2.053309481216458 0.9177163787541003
2.056529516994633 0.931543909403169
2.0597495527728085 0.941915716510121
2.062969588550984 0.9522875236170729
2.066189624329159 0.9609314689529667
2.070483005366726 0.9747605450955694
2.073703041144902 0.9851323522025215
2.0779964221824687 0.9903221194898325
2.0822898032200357 0.9955118867771436
2.0887298747763863 0.9989768832804644
2.0962432915921285 0.9955319781930863
2.0994633273703043 0.9903530293605134
2.104830053667263 0.981721447972892
2.110196779964222 0.9679062812720957
2.113416815742397 0.9558158853552896
2.123076923076923 0.9264561446891046
2.1262969588550984 0.9143657487722985
2.1295169946332737 0.9022753528554923
2.1359570661896243 0.8798224227929385
2.1402504472271913 0.8573664017433167
2.146690518783542 0.8366413334518211
2.1531305903398925 0.8020933709918591
2.1606440071556348 0.777914124651781
2.1681574239713775 0.7485512929985279
2.1756708407871197 0.720916323116333
2.1853309481216456 0.6967401677633229
2.1949910554561716 0.6760197359524297
2.2046511627906975 0.6466599952862446
2.216457960644007 0.6138476220650111
2.2336314847942753 0.5724036674561563
2.249731663685152 0.5275024438116507
2.2701252236135954 0.475695955057048
2.287298747763864 0.4342520004481931
2.301252236135957 0.39453127112979436
2.3130590339892665 0.373813930305969
2.319499105545617 0.34790527670129867
2.3313059033989267 0.325460074106415
2.338819320214669 0.30473655130845323
2.3495527728085865 0.2926569738463858
2.3570661896243292 0.27193345104842415
2.3688729874776384 0.2529439719956572
2.379606440071556 0.23568080922041434
2.390339892665474 0.22187336998728835
2.4021466905187836 0.20115602916346287
2.415026833631485 0.18562381914634662
2.4300536672629693 0.17009470011629846
2.444007155635062 0.15456403559271625
2.4536672629695886 0.14421077440817243
2.464400715563506 0.14077050580139638
2.4719141323792484 0.12868629185872638
2.482647584973166 0.12006243793877536
2.493381037567084 0.1114385840188239
2.4998211091234346 0.10453640989579505
2.511627906976744 0.09764196324043617
2.5223613595706618 0.08901810932048515
2.534168157423971 0.08212366266512627
2.544901610017889 0.0769555322872919
2.555635062611807 0.06833167836734044
2.5728085867620747 0.0631728209507103
2.58783542039356 0.05455514900489544
2.600715563506261 0.04939010961412893
2.613595706618962 0.042497208452304314
2.626475849731664 0.03733216906153758
2.6318425760286224 0.040795620071324645
2.64257602862254 0.03562748969348983
2.650089445438282 0.03736616991928643
2.6629695885509834 0.03220113052852014
2.6758497316636847 0.027036091137753626
2.6833631484794274 0.030502633134608548
2.6983899821109123 0.02361282295985201
2.714490161001789 0.02190814359180404
2.7252236135957064 0.018467874985028
2.7434704830053667 0.018494148375106656
2.759570661896243 0.018517330778117236
2.772450805008944 0.016808014929467374
2.7853309481216457 0.013370837309759409
2.7992844364937386 0.015118790496760237
2.81216457960644 0.013409474648110375
2.8282647584973164 0.01516051882217928
2.8422182468694093 0.015180610238121783
2.862611806797853 0.010026389302093985